,soc,current,voltage,ocv
0,1.0,0.0,4.187132835388184,4.189409255981445
1,0.999861866254927,-4.850343227386475,4.047478199005127,4.180628782768022
2,0.9995855987376213,-4.850344181060791,4.041785717010498,4.178658007758343
3,0.9993093321030108,-4.850312232971191,4.0375213623046875,4.17720931673856
4,0.9990330645585451,-4.850376129150391,4.0338358879089355,4.175972001920792
5,0.9987567958733657,-4.8503522872924805,4.030778884887695,4.1748297795402385
6,0.9984805273783054,-4.850369453430176,4.027967929840088,4.173773434492865
7,0.9982042579054903,-4.850386619567871,4.025257587432861,4.172747932428848
8,0.9979279876857792,-4.850395679473877,4.0226898193359375,4.171720750262107
9,0.9976517177648265,-4.850376129150391,4.020402908325195,4.170890416987205
10,0.9973754488895282,-4.850358963012695,4.018326282501221,4.170015489252619
11,0.9970991817524604,-4.850315093994141,4.016112327575684,4.169103655892542
12,0.9968229140721956,-4.850378036499023,4.0140700340271,4.168220043182373
13,0.9965466443549418,-4.850386619567871,4.012236595153809,4.16735640873614
14,0.9962703748821267,-4.850369453430176,4.010487079620361,4.1666337269072855
15,0.9959941058438692,-4.850371360778809,4.008718967437744,4.165806966856599
16,0.9957178365611731,-4.850378036499023,4.007122993469238,4.165071536470265
17,0.9954415678488339,-4.850351333618164,4.00540828704834,4.164225790254625
18,0.9951652987155168,-4.850392818450928,4.003798484802246,4.163573542535288
19,0.9948890278982891,-4.850410461425781,4.002410888671875,4.162753628907438
20,0.9946127571761207,-4.85038948059082,4.000938415527344,4.162004179216026
21,0.9943364859107554,-4.850429534912109,3.999502658843994,4.1612844995522105
22,0.9940602144416912,-4.850396633148193,3.9980719089508057,4.160503668587067
23,0.9937839451454151,-4.850353240966797,3.996689796447754,4.159830603194332
24,0.993507676596035,-4.850370407104492,3.995394706726074,4.159099843473695
25,0.9932314085219524,-4.85033655166626,3.9941794872283936,4.158413815368647
26,0.9929551403392302,-4.850374221801758,3.9930546283721924,4.157716337467024
27,0.992678870703456,-4.8503875732421875,3.99172043800354,4.157004582361978
28,0.9924026003751055,-4.850398540496826,3.990553140640259,4.156365943476118
29,0.9921263293677588,-4.850411415100098,3.989441394805908,4.155695314616669
30,0.9918500589443489,-4.850378036499023,3.9883322715759277,4.154992387130584
31,0.9915737888332773,-4.850400447845459,3.987196207046509,4.154451937519751
32,0.9912975179753097,-4.850404262542725,3.9861061573028564,4.153737242937735
33,0.9910212470358626,-4.850403308868408,3.9849395751953125,4.1530589607868595
34,0.9907449771963894,-4.85036563873291,3.9838991165161133,4.152496980910404
35,0.9904687082939313,-4.850370407104492,3.982783079147339,4.151814962693432
36,0.990192439771711,-4.8503522872924805,3.9819955825805664,4.1512083501062085
37,0.9899161707877733,-4.850386619567871,3.9808828830718994,4.1506143676703875
38,0.9896398999841254,-4.85041618347168,3.9800329208374023,4.149978744381427
39,0.9893636290310983,-4.850391864776611,3.97904634475708,4.149403566819306
40,0.9890873596261829,-4.8503618240356445,3.9780492782592773,4.148787078558467
41,0.9888110907237246,-4.850374221801758,3.9770567417144775,4.148188531718758
42,0.9885348210064709,-4.850390434265137,3.9763317108154297,4.147681155351734
43,0.9882585504608417,-4.850403308868408,3.9753034114837646,4.147027493485853
44,0.9879822787473387,-4.850431442260742,3.974538564682007,4.146473383844167
45,0.9877060073054343,-4.850393772125244,3.9735302925109863,4.145824571411915
46,0.9874297367462251,-4.850400447845459,3.972691535949707,4.145293929287099
47,0.9871534672055104,-4.850358009338379,3.9719595909118652,4.14467445054948
48,0.9868771986018106,-4.850367546081543,3.9711382389068604,4.144119743101485
49,0.9866009296178728,-4.850371360778809,3.9703071117401123,4.1435426116367085
50,0.9863246596697604,-4.850401401519775,3.9694719314575195,4.143082374337176
51,0.9860483886352538,-4.850409507751465,3.968687057495117,4.142518145391611
52,0.9857721176822267,-4.850398540496826,3.9679551124572754,4.141960304522382
53,0.985495847231657,-4.850391864776611,3.9671900272369385,4.141508953080265
54,0.9852195763872693,-4.850412368774414,3.9663026332855225,4.140900412955195
55,0.9849433058552199,-4.850380897521973,3.9655489921569824,4.140425880577047
56,0.9846670359478472,-4.850390434265137,3.964939832687378,4.139880087398423
57,0.9843907666108314,-4.850360870361328,3.964184284210205,4.139351071355617
58,0.9841144973281353,-4.850388526916504,3.9634664058685303,4.13884292015751
59,0.9838382273664428,-4.850384712219238,3.9627439975738525,4.138369096049116
60,0.9835619570924121,-4.850399494171143,3.9619522094726562,4.137828683666724
61,0.9832856864517233,-4.85039758682251,3.9612934589385986,4.1373040781082455
62,0.9830094160283134,-4.850391864776611,3.9606308937072754,4.13683553702163
63,0.9827331463517994,-4.850371360778809,3.9600069522857666,4.1363681668548615
64,0.982456876376527,-4.850402355194092,3.959411382675171,4.135891113288422
65,0.9821806049617825,-4.850421905517578,3.958696126937866,4.135488545095343
66,0.9819043329631012,-4.8504228591918945,3.958000659942627,4.134889483415514
67,0.9816280612088585,-4.8504133224487305,3.9573636054992676,4.134420761344517
68,0.9813517898348537,-4.850409507751465,3.9568159580230713,4.133999306760525
69,0.9810755180262913,-4.850428581237793,3.956170082092285,4.133502939246099
70,0.9807992470596844,-4.850379943847656,3.955625057220459,4.13307553720023
71,0.9805229766634344,-4.850408554077148,3.9549672603607178,4.132614254578521
72,0.9802467057375671,-4.850398540496826,3.954326629638672,4.1321658426691386
73,0.979970434988239,-4.850402355194092,3.95369291305542,4.131666029888785
74,0.9796941641031116,-4.850403308868408,3.9531209468841553,4.131212812679523
75,0.9794178921723299,-4.850439071655273,3.9525654315948486,4.130761901295237
76,0.9791416194131727,-4.850432395935059,3.951913595199585,4.13030275289047
77,0.9788653478626288,-4.850396633148193,3.9514546394348145,4.129915168797949
78,0.9785890761491259,-4.850438117980957,3.950850486755371,4.129461078302453
79,0.9783128039603256,-4.8504133224487305,3.9502975940704346,4.1290540117246515
80,0.978036532559161,-4.850410461425781,3.9496796131134033,4.128578190842692
81,0.9777602617147734,-4.850393772125244,3.9492058753967285,4.128231266980126
82,0.9774839908432259,-4.850411415100098,3.94872784614563,4.127770268038381
83,0.977207718763065,-4.850436210632324,3.948188066482544,4.127334668084138
84,0.9769314465471048,-4.85041618347168,3.9476847648620605,4.126925217443775
85,0.9766551757162971,-4.8503875732421875,3.9470903873443604,4.1265500719069905
86,0.9763789052793073,-4.850402355194092,3.9466304779052734,4.126128513221212
87,0.9761026337830832,-4.850424766540527,3.9460368156433105,4.125684692156572
88,0.9758263624769781,-4.850395679473877,3.945613384246826,4.125235912690234
89,0.9755500905190365,-4.850447654724121,3.9451310634613037,4.124834259943415
90,0.9752738184524555,-4.850399494171143,3.9446191787719727,4.124502356790533
91,0.9749975454895994,-4.8504791259765625,3.9441704750061035,4.124117233615103
92,0.9747212720514459,-4.85041618347168,3.9436628818511963,4.123827832480873
93,0.9744450011391587,-4.850390434265137,3.943197011947632,4.123340200037118
94,0.9741687294663955,-4.850442886352539,3.9427685737609863,4.123006893886193
95,0.9738924570874763,-4.850415229797363,3.942258358001709,4.122612734858967
96,0.9736161855505124,-4.8504133224487305,3.941802740097046,4.122221016423915
97,0.9733399145703255,-4.850395679473877,3.941338539123535,4.121898659488409
98,0.9730636429111423,-4.850437164306641,3.9408318996429443,4.1214961766197415
99,0.9727873703692639,-4.85042667388916,3.940434694290161,4.121116267732773
100,0.9725110978273855,-4.850437164306641,3.9400391578674316,4.120795532213292
101,0.9722348252855071,-4.85042667388916,3.9396140575408936,4.120420658084028
102,0.9719585534769447,-4.850411415100098,3.9391543865203857,4.120053309378657
103,0.9716822818313414,-4.850420951843262,3.9387667179107666,4.119663658462693
104,0.9714060099684594,-4.850419044494629,3.93831729888916,4.119259247839098
105,0.9711297383228561,-4.8504133224487305,3.9379372596740723,4.118912922337525
106,0.9708534672068699,-4.850400447845459,3.9375548362731934,4.118621576199516
107,0.9705771959279247,-4.850419044494629,3.937126398086548,4.118277846616536
108,0.9703009235218456,-4.85044002532959,3.9366960525512695,4.117996533521866
109,0.9700246520392014,-4.850386619567871,3.9362337589263916,4.117607846541985
110,0.9697483808553156,-4.850429534912109,3.9358737468719482,4.117313743082269
111,0.9694721093047718,-4.850399494171143,3.9354236125946045,4.116922508791204
112,0.9691958373468302,-4.8504438400268555,3.935037612915039,4.11665128465896
113,0.9689195650222306,-4.850412368774414,3.9346299171447754,4.116220584754037
114,0.968643293267988,-4.850423812866211,3.9342145919799805,4.115945300620533
115,0.9683670218532435,-4.850400447845459,3.933847665786743,4.115619675562455
116,0.9680907506014581,-4.8504180908203125,3.9334990978240967,4.115286228792685
117,0.9678144799879291,-4.850378036499023,3.933211326599121,4.115023285445453
118,0.9675382103521549,-4.850383758544922,3.932647228240967,4.1146184033387945
119,0.9672619390867896,-4.850435256958008,3.9322986602783203,4.114357049280851
120,0.9669856660831937,-4.850444793701172,3.932097911834717,4.114009597422066
121,0.9667093938943935,-4.850406646728516,3.9317286014556885,4.1137602103654345
122,0.9664331228598868,-4.850404262542725,3.931337356567383,4.113442143992344
123,0.9661568521377185,-4.850395679473877,3.930931568145752,4.1131538260146945
124,0.9658805819180075,-4.850386619567871,3.9305689334869385,4.112927730977829
125,0.9656043101230251,-4.8504509925842285,3.930274248123169,4.112488663805044
126,0.9653280378799051,-4.850402355194092,3.929879665374756,4.112282339081909
127,0.9650517655009857,-4.8504557609558105,3.9294016361236572,4.111884264720527
128,0.9647754931763861,-4.850400447845459,3.9293198585510254,4.111636259370618
129,0.964499222250519,-4.850406646728516,3.928805351257324,4.111417640853539
130,0.9642229505234361,-4.850428581237793,3.9284863471984863,4.111081107159009
131,0.9639466785790745,-4.850414276123047,3.928175210952759,4.11078349818755
132,0.9636704067161924,-4.850425720214844,3.927830934524536,4.11045933594121
133,0.9633941336990166,-4.850454807281494,3.9274771213531494,4.110257205093909
134,0.9631178612250378,-4.850406646728516,3.9271676540374756,4.109896021752658
135,0.9628415888868583,-4.850450038909912,3.926802635192871,4.109651517451682
136,0.9625653163314001,-4.850414276123047,3.926496744155884,4.109331871762119
137,0.9622890447672763,-4.850415229797363,3.9261159896850586,4.109064325063706
138,0.9620127730130337,-4.850420951843262,3.925802230834961,4.108827409816697
139,0.9617365019921069,-4.85038948059082,3.9255518913269043,4.10850288060218
140,0.9614602297897268,-4.850462436676025,3.925208568572998,4.108269748025869
141,0.9611839581033836,-4.850371360778809,3.9249095916748047,4.108027948582694
142,0.9609076887663679,-4.850379943847656,3.924532175064087,4.1077734290306385
143,0.9606314194565119,-4.850370407104492,3.9242358207702637,4.107421642994436
144,0.9603551500651764,-4.8503828048706055,3.923916816711426,4.107250069890291
145,0.9600788802392831,-4.850385665893555,3.923619508743286,4.10693159839121
146,0.9598026091368769,-4.850427627563477,3.923220634460449,4.10676996906211
147,0.959526336866597,-4.85042667388916,3.9229745864868164,4.106475120210527
148,0.9592500655061722,-4.850395679473877,3.922755479812622,4.106158076699671
149,0.9589737952593014,-4.8503875732421875,3.9223973751068115,4.105932934511582
150,0.9586975248494713,-4.850401401519775,3.9221062660217285,4.105665398974997
151,0.9584212534890465,-4.850420951843262,3.921815872192383,4.105486039336632
152,0.9581449823459005,-4.850393772125244,3.921541213989258,4.105185285090451
153,0.9578687093015649,-4.85048770904541,3.9212961196899414,4.104960638903516
154,0.9575924346547979,-4.850450038909912,3.920898914337158,4.104677264720166
155,0.9573161628598155,-4.8503875732421875,3.9205687046051025,4.104492345026896
156,0.9570398915672903,-4.850432395935059,3.9202678203582764,4.104279385142885
157,0.9567636188352929,-4.850438117980957,3.9200053215026855,4.103983140569465
158,0.956487346021816,-4.850435256958008,3.919767141342163,4.103865757988826
159,0.9562110727602016,-4.850453853607178,3.91936993598938,4.103547809418504
160,0.9559347993627878,-4.85044002532959,3.919187307357788,4.103283920309548
161,0.9556585265764708,-4.850432395935059,3.918910026550293,4.103080767272846
162,0.9553822544419901,-4.850417137145996,3.9185380935668945,4.102848805707309
163,0.95510598404574,-4.850371360778809,3.9183695316314697,4.102610586147722
164,0.9548297144371257,-4.85038948059082,3.9180331230163574,4.102481128362081
165,0.9545534431989202,-4.850428581237793,3.9177348613739014,4.102151027957692
166,0.9542771709558002,-4.850424766540527,3.917555093765259,4.101978198779395
167,0.9540008990385984,-4.850417137145996,3.9172472953796387,4.101681802527771
168,0.9537246273386754,-4.850417137145996,3.9169492721557617,4.101559193778278
169,0.9534483547288973,-4.850449085235596,3.91666841506958,4.101210424233059
170,0.9531720827573759,-4.8503947257995605,3.916424036026001,4.101077377272444
171,0.9528958116142299,-4.850419998168945,3.916109561920166,4.100898872285449
172,0.9526195396155486,-4.850424766540527,3.915740966796875,4.100635225809271
173,0.9523432674810679,-4.850424766540527,3.915602684020996,4.100413434607749
174,0.9520669952651077,-4.850427627563477,3.9153707027435303,4.100235988607567
175,0.9517907234022257,-4.850412368774414,3.914992570877075,4.099998769792592
176,0.951514450548009,-4.850462436676025,3.9147849082946777,4.0997811051777076
177,0.9512381776123127,-4.850415229797363,3.9144961833953857,4.099541965676208
178,0.950961905695111,-4.85042667388916,3.914254665374756,4.099382405311636
179,0.9506856344161656,-4.850392818450928,3.914109468460083,4.09918028259312
180,0.9504093644408933,-4.850380897521973,3.913731336593628,4.098944501390096
181,0.9501330930668885,-4.850441932678223,3.913402795791626,4.098788238733093
182,0.9498568208509284,-4.850410461425781,3.9132654666900635,4.09864063827733
183,0.9495805482139905,-4.850456714630127,3.9130516052246094,4.098325020553599
184,0.9493042757264318,-4.850405216217041,3.912733554840088,4.098139210184637
185,0.9490280046647653,-4.850406646728516,3.9125144481658936,4.097915785093069
186,0.9487517332636007,-4.850417137145996,3.9122605323791504,4.097821380046228
187,0.9484754609118413,-4.85044002532959,3.912078857421875,4.097623152377966
188,0.9481991893205578,-4.850390434265137,3.91166353225708,4.097417343507248
189,0.9479229190736869,-4.850392818450928,3.9113149642944336,4.09719259293159
190,0.9476466482021394,-4.850412368774414,3.911160945892334,4.0971065784659055
191,0.9473703773984915,-4.850390434265137,3.9108951091766357,4.096847933189852
192,0.9470941059430072,-4.850435256958008,3.91070556640625,4.096623442209212
193,0.9468178328579318,-4.850447654724121,3.9106342792510986,4.096421127414385
194,0.9465415599901352,-4.850427627563477,3.9101614952087402,4.096276411133455
195,0.9462652879914538,-4.850417137145996,3.9099032878875732,4.0961653578727075
196,0.9459890155853747,-4.850441932678223,3.909611225128174,4.09593259497423
197,0.9457127432336153,-4.850415229797363,3.9094338417053223,4.095750998050394
198,0.9454364716694915,-4.850414276123047,3.909196615219116,4.095540380027231
199,0.9451601992905723,-4.8504438400268555,3.9090793132781982,4.095426578504584
200,0.9448839266128947,-4.850424766540527,3.908670663833618,4.095245168149762
201,0.9446076546413731,-4.850419044494629,3.908482074737549,4.095035053088347
202,0.944331382778491,-4.850420951843262,3.9082725048065186,4.0948890406940555
203,0.944055111445226,-4.850400447845459,3.9079318046569824,4.094797635995937
204,0.9437788392292659,-4.850451946258545,3.907754421234131,4.094654582692718
205,0.943502566049131,-4.850434303283691,3.907562494277954,4.0943581183934095
206,0.9432262935072526,-4.850429534912109,3.9072530269622803,4.0942017098969075
207,0.9429500214542516,-4.850417137145996,3.9069790840148926,4.094024459428754
208,0.9426737500938267,-4.850405216217041,3.9067931175231934,4.093843233495715
209,0.942397478733402,-4.850417137145996,3.906608819961548,4.093736907641793
210,0.9421212064088024,-4.850439071655273,3.9064385890960693,4.09350272996226
211,0.941844934220002,-4.850412368774414,3.9062917232513428,4.093400131165612
212,0.9415686619225623,-4.850442886352539,3.9059526920318604,4.093260953031237
213,0.9412923899917806,-4.850399494171143,3.9057493209838867,4.09300041535769
214,0.9410161191609728,-4.850404262542725,3.9054415225982666,4.092881630690397
215,0.9407398488326224,-4.850381851196289,3.905186891555786,4.09266563710663
216,0.9404635774586176,-4.850440979003906,3.905008554458618,4.092510988493712
217,0.9401873043192226,-4.8504438400268555,3.9048547744750977,4.092342260675566
218,0.9399110324156007,-4.85039758682251,3.904515027999878,4.092283321839256
219,0.9396347612452948,-4.8504180908203125,3.9041786193847656,4.092003751818375
220,0.9393584900478291,-4.850398540496826,3.9041194915771484,4.091808884165027
221,0.9390822194886199,-4.850395679473877,3.9036953449249268,4.091778586258171
222,0.9388059477207973,-4.850440979003906,3.9035675525665283,4.091558861186876
223,0.9385296767813502,-4.850366592407227,3.9034266471862793,4.091384195500244
224,0.9382534062764607,-4.850425720214844,3.903155565261841,4.091260707725744
225,0.9379771337617422,-4.850437164306641,3.9029312133789062,4.0910995944256054
226,0.9377008616544215,-4.850411415100098,3.9026947021484375,4.090983016875053
227,0.9374245914754502,-4.850369453430176,3.902514934539795,4.090733494677979
228,0.9371483207804417,-4.850429534912109,3.902374029159546,4.090641126173791
229,0.9368720482114035,-4.850435256958008,3.9020185470581055,4.090419092862043
230,0.936595775859644,-4.850421905517578,3.9018056392669678,4.0903375796144985
231,0.9363195042955204,-4.850407600402832,3.9017343521118164,4.090198162520063
232,0.9360432328671959,-4.850417137145996,3.9014675617218018,4.090038209630429
233,0.9357669588586854,-4.850498199462891,3.901193618774414,4.089844003464205
234,0.9354906840625393,-4.850444793701172,3.9009320735931396,4.089739955094958
235,0.9352144103663672,-4.850459575653076,3.900794744491577,4.08947878953161
236,0.934938136697355,-4.8504438400268555,3.900606155395508,4.089452597679959
237,0.9346618638295584,-4.850431442260742,3.900240898132324,4.0892790955220555
238,0.9343855907580628,-4.8504509925842285,3.9001009464263916,4.089137396951066
239,0.9341093173334892,-4.8504438400268555,3.899846315383911,4.089039964596063
240,0.9338330435422577,-4.8504638671875,3.8995473384857178,4.088859261283973
241,0.9335567700497844,-4.850433349609375,3.8993961811065674,4.088730839842347
242,0.933280498254802,-4.850404262542725,3.8992135524749756,4.088592225875763
243,0.9330042262153809,-4.850441932678223,3.8988823890686035,4.088451549855614
244,0.9327279533747441,-4.850432395935059,3.898717164993286,4.088346841216878
245,0.93245168005881,-4.85045862197876,3.898536443710327,4.088204293319076
246,0.9321754069601546,-4.850424766540527,3.8984076976776123,4.088002212240089
247,0.9318991347170346,-4.850428581237793,3.898043632507324,4.087988099258801
248,0.9316228628541525,-4.850411415100098,3.8978724479675293,4.087758621950616
249,0.9313465920776645,-4.850390434265137,3.8976829051971436,4.087524735249253
250,0.9310703207308195,-4.850431442260742,3.8976099491119385,4.087397364527527
251,0.9307940497913725,-4.850376129150391,3.8972935676574707,4.087344248976246
252,0.9305177795580815,-4.850406646728516,3.8971526622772217,4.087133164103697
253,0.9302415084556752,-4.850406646728516,3.8968067169189453,4.087061110156842
254,0.9299652371088304,-4.850415229797363,3.8968214988708496,4.086985178119519
255,0.9296889663595023,-4.850385665893555,3.896359920501709,4.086811773349467
