,soc,current,voltage,ocv
0,1.0,0.0,4.187200546264648,4.189444541931152
1,0.9998617940720076,-4.850335597991943,4.046670436859131,4.180640309730913
2,0.999585382664395,-4.850319862365723,4.041018009185791,4.178621190768034
3,0.9993089711752603,-4.850338459014893,4.036659240722656,4.177107395522705
4,0.9990325589388381,-4.850346088409424,4.033106327056885,4.1758627755249975
5,0.9987561465665455,-4.850343227386475,4.03000020980835,4.174741694316621
6,0.998479735430674,-4.850302696228027,4.026974678039551,4.173649672101518
7,0.9982033237920818,-4.850360870361328,4.024261474609375,4.172675862174028
8,0.9979269112159835,-4.850335597991943,4.021827220916748,4.171733109862583
9,0.997650498884452,-4.8503522872924805,4.019477844238281,4.170804945540658
10,0.9973740864170502,-4.850340366363525,4.0173726081848145,4.169905130286939
11,0.997097674479543,-4.8503336906433105,4.0152506828308105,4.169064985574327
12,0.9968212628817119,-4.85032844543457,4.013267993927002,4.1682037143891595
13,0.9965448506181157,-4.8503570556640625,4.011280059814453,4.167351580507614
14,0.9962684375121227,-4.850358009338379,4.009551048278809,4.1665824871990615
15,0.9959920249631986,-4.850337505340576,4.0077948570251465,4.165760870749655
16,0.9957156139903715,-4.850302696228027,4.006163597106934,4.1649757702914565
17,0.995439204145269,-4.850297927856445,4.004473686218262,4.164215423380434
18,0.99516279226211,-4.850374221801758,4.002920150756836,4.163442335952478
19,0.9948863798898174,-4.850315093994141,4.0014328956604,4.162639325992743
20,0.9946099681153547,-4.850353240966797,3.999990463256836,4.161963442653375
21,0.9943335569658961,-4.850293159484863,3.9986026287078857,4.161213694116193
22,0.9940571461832877,-4.850340366363525,3.997317314147949,4.160524690353966
23,0.9937807345039343,-4.850324630737305,3.995849609375,4.159769583057578
24,0.9935043226343623,-4.85034704208374,3.994570255279541,4.159051758058263
25,0.9932279110365313,-4.850315093994141,3.9932971000671387,4.158341742837553
26,0.9929515001859875,-4.850320816040039,3.992083787918091,4.157669957758916
27,0.9926750885338083,-4.850343227386475,3.9908487796783447,4.156964121846076
28,0.9923986764876047,-4.850334644317627,3.9896624088287354,4.156266189219355
29,0.9921222654876036,-4.850306510925293,3.988532543182373,4.155609936614674
30,0.991845855289238,-4.850306510925293,3.9874119758605957,4.154991721712975
31,0.9915694450908724,-4.850306510925293,3.986304759979248,4.154289639091007
32,0.9912930345664178,-4.85031795501709,3.985156536102295,4.153658508621941
33,0.9910166239604409,-4.850309371948242,3.9840188026428223,4.153068519839507
34,0.9907402154196946,-4.850245475769043,3.9830167293548584,4.152448535029191
35,0.9904638073409079,-4.850293159484863,3.9819700717926025,4.151726138021681
36,0.9901873975501536,-4.850305557250977,3.9810433387756348,4.151154898746428
37,0.9899109862512375,-4.850346088409424,3.9801037311553955,4.150490555378589
38,0.9896345742729692,-4.850329399108887,3.9790189266204834,4.149915847045976
39,0.9893581634224254,-4.850306510925293,3.97806715965271,4.149331634235654
40,0.9890817535501489,-4.850295066833496,3.9771673679351807,4.14871072769165
41,0.9888053432974352,-4.850319862365723,3.9761719703674316,4.14806731811723
42,0.9885289320936284,-4.85032844543457,3.975301742553711,4.147356314487872
43,0.9882525209985179,-4.850316047668457,3.974400281906128,4.146872633266279
44,0.9879761102838446,-4.850315093994141,3.9734597206115723,4.1463240652235385
45,0.9876996997865641,-4.850308418273926,3.9726781845092773,4.145800836318937
46,0.9874232893164576,-4.850314140319824,3.971885919570923,4.1451716624077655
47,0.987146878465914,-4.8503217697143555,3.971060037612915,4.144666342901635
48,0.986870467533848,-4.850317001342773,3.9701125621795654,4.1440608948540625
49,0.9865940580827698,-4.850269794464111,3.969362258911133,4.143552656309029
50,0.986317648767562,-4.850312232971191,3.9685745239257812,4.142924099855166
51,0.9860412390311559,-4.850284576416016,3.9677371978759766,4.142495606714423
52,0.9857648291860535,-4.850316047668457,3.966956377029419,4.1419342286657495
53,0.9854884185800766,-4.850311279296875,3.9661104679107666,4.141312180798209
54,0.9852120087349742,-4.850289344787598,3.965376615524292,4.140822263355395
55,0.9849355985909568,-4.8503217697143555,3.964630603790283,4.140288039125942
56,0.9846591886099839,-4.850283622741699,3.9639289379119873,4.139751668832495
57,0.984382781101853,-4.8502349853515625,3.963188886642456,4.1392400120128485
58,0.9841063732132848,-4.850296974182129,3.9625749588012695,4.138724724347639
59,0.9838299634497046,-4.8503007888793945,3.961792469024658,4.1382389075838555
60,0.9835535536861244,-4.850296974182129,3.9610488414764404,4.13773978956371
61,0.98327714509103,-4.850259780883789,3.960392475128174,4.1372333189064445
62,0.9830007368763728,-4.850283622741699,3.9597392082214355,4.1366837772348966
63,0.9827243277649708,-4.8502912521362305,3.95904541015625,4.1362208965697
64,0.9824479185176982,-4.850288391113281,3.9583487510681152,4.1357682137690945
65,0.9821715092975998,-4.850290298461914,3.957679271697998,4.135216832850982
66,0.9818951002133718,-4.850283622741699,3.9570417404174805,4.134790555719864
67,0.9816186907215324,-4.85030460357666,3.956404209136963,4.134261234173672
68,0.9813422809851263,-4.850292205810547,3.955770254135132,4.133835850255744
69,0.9810658713574166,-4.8503007888793945,3.9552395343780518,4.133378854243919
70,0.9807894619470996,-4.850284576416016,3.9546124935150146,4.132854660947099
71,0.9805130528900456,-4.850288391113281,3.953922986984253,4.132420189856548
72,0.9802366438329917,-4.850284576416016,3.9533567428588867,4.131995088183864
73,0.9799602344498488,-4.850299835205078,3.952810525894165,4.131503711537631
74,0.9796838243601795,-4.850309371948242,3.952120065689087,4.131093100759743
75,0.9794074153031256,-4.850263595581055,3.951613664627075,4.130638488979824
76,0.9791310070748813,-4.850280284881592,3.9510135650634766,4.130197360480021
77,0.9788545981401109,-4.850288391113281,3.950540065765381,4.129768486964061
78,0.9785781901428463,-4.850247383117676,3.9498844146728516,4.129288760320408
79,0.9783017806645941,-4.850340366363525,3.949333906173706,4.128796922407331
80,0.9780253709689491,-4.850255012512207,3.94881010055542,4.128444775299218
81,0.977748962482551,-4.850297927856445,3.9482855796813965,4.12799800037004
82,0.9774725528548412,-4.850295066833496,3.9477427005767822,4.127568856153586
83,0.9771961439200708,-4.850273609161377,3.9471964836120605,4.127209521792945
84,0.9769197354064986,-4.850280284881592,3.9467508792877197,4.126770851257648
85,0.9766433283739142,-4.850221633911133,3.9461281299591064,4.126307135984076
86,0.9763669214772003,-4.85027551651001,3.945718288421631,4.125944295500191
87,0.9760905137109155,-4.850252151489258,3.945145845413208,4.12552333610864
88,0.9758141065560477,-4.850254058837891,3.944768190383911,4.1251277259978005
89,0.9755376988169371,-4.8502726554870605,3.9441237449645996,4.124729243301001
90,0.9752612895560775,-4.850307464599609,3.943683385848999,4.124376736881264
91,0.9749848802408697,-4.850274562835693,3.943166732788086,4.123937625563104
92,0.974708471835994,-4.85027551651001,3.942715883255005,4.1236053413878695
93,0.974432062466438,-4.850308418273926,3.9422600269317627,4.123225735298906
94,0.9741556535996028,-4.850257873535156,3.941756248474121,4.122782220527078
95,0.9738792464990831,-4.850246429443359,3.9412386417388916,4.122469186104119
96,0.9736028391132355,-4.8502678871154785,3.9408442974090576,4.1220368347744705
97,0.9733264308985784,-4.85027551651001,3.940361499786377,4.121746976273195
98,0.97305002324099,-4.850248336791992,3.9398090839385986,4.121268290343396
99,0.9727736147274179,-4.850305557250977,3.9394216537475586,4.120985035850169
100,0.9724972056024287,-4.850269794464111,3.9389796257019043,4.1205399586914195
101,0.972220796912225,-4.850290298461914,3.9386210441589355,4.120154531351696
102,0.9719443892410495,-4.850234031677246,3.938138961791992,4.119865151743645
103,0.9716679816785704,-4.850286483764648,3.937788963317871,4.119490425049765
104,0.9713915734367391,-4.850257873535156,3.937396287918091,4.119147470715676
105,0.9711151657519767,-4.850266933441162,3.9368484020233154,4.118747097972622
106,0.970838757727538,-4.850269794464111,3.9364523887634277,4.118409749938835
107,0.9705623491188565,-4.850287437438965,3.9361014366149902,4.118099194857973
108,0.9702859397357136,-4.850296974182129,3.9356532096862793,4.117728557328866
109,0.9700095313308378,-4.850253105163574,3.935299873352051,4.117480938116301
110,0.9697331234286826,-4.850279331207275,3.9348039627075195,4.117068471059787
111,0.9694567144123898,-4.850292205810547,3.9343931674957275,4.11677475307563
112,0.9691803055047934,-4.85027551651001,3.934126615524292,4.116396286376055
113,0.9689038979830754,-4.85024356842041,3.9336905479431152,4.116065085603405
114,0.9686274916162562,-4.8502349853515625,3.933253765106201,4.115774173933686
115,0.9683510858472668,-4.850222587585449,3.93294358253479,4.115428038209353
116,0.9680746790320751,-4.850271701812744,3.9325110912323,4.115138402437919
117,0.967798270844592,-4.850270748138428,3.9321916103363037,4.114796453789976
118,0.9675218631054814,-4.850255966186523,3.9318413734436035,4.114468615307019
119,0.9672454557060468,-4.850258827209473,3.9314098358154297,4.114164289453348
120,0.9669690484968309,-4.850249290466309,3.9310059547424316,4.11387319993702
121,0.9666926404995664,-4.850286483764648,3.9306507110595703,4.113529187451274
122,0.9664162315512088,-4.850282669067383,3.930354595184326,4.113243969896407
123,0.96613982315992,-4.850266933441162,3.9298856258392334,4.11289811899666
124,0.9658634152170037,-4.850266933441162,3.929516553878784,4.11256079083411
125,0.9655870059289701,-4.850314140319824,3.929203987121582,4.11229648245424
126,0.9653105986654059,-4.85019588470459,3.928861618041992,4.112001551865826
127,0.9650341934942465,-4.850240707397461,3.928502082824707,4.111690521947697
128,0.9647577868556864,-4.850247383117676,3.9281392097473145,4.11140080311708
129,0.9644813794698388,-4.850266933441162,3.927894115447998,4.111114757558827
130,0.9642049696926717,-4.8503313064575195,3.927501678466797,4.1108527653726945
131,0.9639285604997473,-4.850246429443359,3.9271368980407715,4.110569986821391
132,0.9636521522307419,-4.850298881530762,3.9267990589141846,4.1102371605581425
133,0.9633757454834854,-4.850193023681641,3.9264838695526123,4.110040144104302
134,0.9630993399047147,-4.850257873535156,3.9261467456817627,4.109725841692084
135,0.9628229314183167,-4.850295066833496,3.9257993698120117,4.109449922199762
136,0.9625465238558375,-4.850225448608398,3.925466775894165,4.109118642036554
137,0.9622701159129212,-4.850308418273926,3.9251174926757812,4.108834124649225
138,0.9619937062852114,-4.850284576416016,3.9248545169830322,4.108564517583239
139,0.9617172985325138,-4.850242614746094,3.9245669841766357,4.108287462488964
140,0.9614408918124313,-4.850248336791992,3.9241466522216797,4.108003629769185
141,0.9611644851466972,-4.850240707397461,3.9238860607147217,4.107747630630379
142,0.9608880792146633,-4.850222587585449,3.9235620498657227,4.107537020716267
143,0.9606116721820789,-4.850279331207275,3.923182487487793,4.107254082999207
144,0.9603352638315512,-4.850268840789795,3.9229602813720703,4.106998351014453
145,0.9600588564457038,-4.850245475769043,3.9225997924804688,4.1067152868817685
146,0.959782449005508,-4.850270748138428,3.9223053455352783,4.106449870292797
147,0.9595060414022678,-4.850251197814941,3.9219918251037598,4.1061523162208236
148,0.9592296340843555,-4.8502607345581055,3.921726942062378,4.1059928561144226
149,0.9589532258425242,-4.850283622741699,3.9213943481445312,4.105778279817384
150,0.9586768179539561,-4.850248336791992,3.921088695526123,4.105462852567066
151,0.958400410717566,-4.8502607345581055,3.920799493789673,4.10530636300685
152,0.95812400350835,-4.850247383117676,3.9206154346466064,4.104961247687432
153,0.957847597223053,-4.850228309631348,3.9201228618621826,4.104707009899253
154,0.9575711915899342,-4.850224494934082,3.919954299926758,4.104491205051078
155,0.9572947852774631,-4.850252151489258,3.919620990753174,4.104284124118821
156,0.9570183778100934,-4.850265026092529,3.9193708896636963,4.10395442756077
157,0.9567419710764239,-4.850226402282715,3.919070243835449,4.103802937284799
158,0.9564655652802605,-4.850232124328613,3.9187498092651367,4.103523118880294
159,0.9561891586688744,-4.850255012512207,3.918562173843384,4.103314925327531
160,0.9559127510656342,-4.850266933441162,3.9181888103485107,4.103023455767252
161,0.9556363433808717,-4.850257873535156,3.917874336242676,4.102847448984708
162,0.9553599344053401,-4.850312232971191,3.9176337718963623,4.102595748759605
163,0.9550835253754603,-4.850259780883789,3.9173314571380615,4.102388430591521
164,0.9548071182477665,-4.850245475769043,3.9170501232147217,4.10216704850009
165,0.954530709924413,-4.850301742553711,3.9167869091033936,4.1019094486053245
166,0.9542543013564926,-4.850254058837891,3.916443109512329,4.101721762122327
167,0.9539778932505318,-4.850285530090332,3.916278123855591,4.1015050067184
168,0.9537014860141417,-4.850223541259766,3.915926218032837,4.101220894046743
169,0.9534250785331849,-4.85029411315918,3.9157516956329346,4.101060391224509
170,0.9531486707804872,-4.85023307800293,3.915365219116211,4.100842067082687
171,0.9528722633267045,-4.850283622741699,3.915184736251831,4.100637316234095
172,0.9525958549354157,-4.850265979766846,3.9148337841033936,4.100410020178121
173,0.9523194475223941,-4.850249290466309,3.9146132469177246,4.100169745883602
174,0.9520430404218745,-4.850255012512207,3.9143240451812744,4.099998682199924
175,0.9517666339191848,-4.850228309631348,3.914074659347534,4.099715383827993
176,0.951490227389321,-4.850255966186523,3.913806438446045,4.099524848976363
177,0.9512138200170605,-4.850257873535156,3.9135005474090576,4.0993187297061
178,0.9509374109871807,-4.850314140319824,3.9133095741271973,4.09915251937232
179,0.9506610024736085,-4.8502397537231445,3.912976026535034,4.0989559306610746
180,0.9503845960524411,-4.850240707397461,3.9128005504608154,4.098693533277392
181,0.9501081885578972,-4.850277423858643,3.912478446960449,4.098533595038447
182,0.9498317804111752,-4.850263595581055,3.912226438522339,4.098361118140288
183,0.9495553738269633,-4.850222587585449,3.9120190143585205,4.098103447961684
184,0.9492789665633992,-4.850287437438965,3.911743640899658,4.097913180563288
185,0.9490025582128715,-4.8502607345581055,3.911451816558838,4.097730713956344
186,0.9487261513569187,-4.8502349853515625,3.9111921787261963,4.097561807094797
187,0.9484497436585692,-4.850290298461914,3.910994052886963,4.097303190104804
188,0.9481733367618552,-4.8502068519592285,3.9106407165527344,4.097125410716637
189,0.9478969319031978,-4.850218772888184,3.9104514122009277,4.096936966962452
190,0.9476205254276822,-4.850263595581055,3.9102628231048584,4.096800311845896
191,0.9473441179195513,-4.850255012512207,3.909985065460205,4.096553830814391
192,0.9470677108733798,-4.850247383117676,3.9097201824188232,4.096380279713456
193,0.9467913033244878,-4.8502726554870605,3.9094622135162354,4.096220859787904
194,0.9465148958027698,-4.850246429443359,3.9092023372650146,4.096085829371711
195,0.9462384875881126,-4.850296974182129,3.908907175064087,4.095835973249957
196,0.9459620789930182,-4.850259780883789,3.908756971359253,4.095649748236545
197,0.9456856725718508,-4.850220680236816,3.908461570739746,4.095477606398935
198,0.9454092650093716,-4.850299835205078,3.9082045555114746,4.095353241532289
199,0.9451328561561234,-4.850265979766846,3.9079840183258057,4.095134995883958
200,0.944856448824624,-4.850246429443359,3.9077563285827637,4.0950078763352185
201,0.9445800419958453,-4.850248336791992,3.9075324535369873,4.094819301699613
202,0.9443036344469533,-4.850271701812744,3.9072771072387695,4.094617453207985
203,0.9440272269524094,-4.850246429443359,3.9070703983306885,4.094455779794111
204,0.9437508194850396,-4.850270748138428,3.906742811203003,4.094244501450449
205,0.9434744115828844,-4.850261688232422,3.9065778255462646,4.094128572676102
206,0.9431980045095388,-4.850241661071777,3.9063546657562256,4.093963076765573
207,0.9429215980340233,-4.850240707397461,3.9062461853027344,4.0938458813508865
208,0.9426451903356737,-4.850284576416016,3.9058725833892822,4.093526281035705
209,0.9423687818356886,-4.850268840789795,3.905606985092163,4.09341325280302
210,0.9420923743411447,-4.850249290466309,3.905404567718506,4.093238070263679
211,0.9418159666835564,-4.850274562835693,3.9050700664520264,4.093098574464992
212,0.9415395577487858,-4.85029411315918,3.904899835586548,4.092900044897373
213,0.941263149669999,-4.850244522094727,3.9046871662139893,4.092718184519406
214,0.9409867429227425,-4.850247383117676,3.9044604301452637,4.092569361534394
215,0.9407103363385306,-4.850238800048828,3.9042398929595947,4.092430619319662
216,0.9404339291700758,-4.8502678871154785,3.9040088653564453,4.092249608608996
217,0.9401575224635804,-4.850222587585449,3.9037952423095703,4.092087818565596
218,0.9398811161782834,-4.850253105163574,3.9035441875457764,4.091945135671473
219,0.9396047091864602,-4.850247383117676,3.9033114910125732,4.091752772909268
220,0.9393283017462645,-4.850268840789795,3.903099536895752,4.091588706827419
221,0.9390518953522712,-4.850210666656494,3.9028573036193848,4.0914711930302445
222,0.9387754889582778,-4.850268840789795,3.9026236534118652,4.091273167092328
223,0.9384990821430861,-4.850225448608398,3.9024202823638916,4.091150033989723
224,0.9382226754094167,-4.850265979766846,3.9022700786590576,4.091009337016581
225,0.9379462672762817,-4.850274562835693,3.9020347595214844,4.090874386608397
226,0.9376698589801022,-4.850271701812744,3.9017577171325684,4.090623294977089
227,0.937393451376862,-4.850250244140625,3.901566743850708,4.090555457636703
228,0.9371170437192736,-4.850273609161377,3.9012506008148193,4.090360954613941
229,0.9368406368769079,-4.850221633911133,3.901108980178833,4.0902399659038275
230,0.9365642308361777,-4.850245475769043,3.900935173034668,4.089938820499662
231,0.9362878237628321,-4.850257873535156,3.900695562362671,4.089875874604036
232,0.9360114169612275,-4.850235939025879,3.9003889560699463,4.089813953417166
233,0.9357350099558172,-4.850265026092529,3.9001779556274414,4.089596429128561
234,0.9354586023254029,-4.850257873535156,3.8999929428100586,4.089456013463278
235,0.9351821949531424,-4.850255966186523,3.899807929992676,4.089315126849133
236,0.9349057878526228,-4.850248336791992,3.8995673656463623,4.089182629912674
237,0.9346293801950344,-4.85027551651001,3.8993520736694336,4.08898839913196
238,0.9343529723472274,-4.850255012512207,3.8991870880126953,4.0888410165697
239,0.9340765651380114,-4.850253105163574,3.8988664150238037,4.088740996281929
240,0.9338001582548845,-4.85024356842041,3.8987109661102295,4.088577906796447
241,0.9335237513174094,-4.850255012512207,3.898472309112549,4.088459789360219
242,0.9332473435782987,-4.850271701812744,3.898226499557495,4.0883378712532705
243,0.9329709352549451,-4.85027551651001,3.898026704788208,4.088157953520279
244,0.9326945273799641,-4.850255966186523,3.8978374004364014,4.08801611426347
245,0.9324181203881408,-4.850244522094727,3.8976783752441406,4.087936324584912
246,0.9321417130566414,-4.8502678871154785,3.8973944187164307,4.087713836606996
247,0.9318653045838304,-4.850284576416016,3.897155523300171,4.087608902053765
248,0.9315888965593918,-4.850252151489258,3.896991491317749,4.087457415975456
249,0.9313124888474553,-4.850273609161377,3.896773338317871,4.087370361548472
250,0.9310360805784499,-4.850271701812744,3.896580696105957,4.087174729480634
251,0.9307596728121651,-4.850255966186523,3.8963427543640137,4.086997080192218
252,0.9304832670839369,-4.850200176239014,3.8961403369903564,4.08695859062198
253,0.930206861736146,-4.850242614746094,3.8959500789642334,4.0868573463477995
254,0.9299304550160636,-4.850248336791992,3.8957111835479736,4.086707456825635
255,0.9296540487579407,-4.850226402282715,3.895494222640991,4.086531377436431
